id,start_time,end_time,duration,len_block_range
0,0.0,0.33,0.33,72
1,0.52,0.78,0.26,22
2,1.23,1.44,0.21,54
3,1.74,2.29,0.55,57
4,2.29,2.59,0.3,37
5,2.88,3.32,0.44,42
6,3.39,3.63,0.24,46
7,3.91,4.1,0.19,51
8,4.45,4.66,0.21,38
9,4.99,5.24,0.25,54
10,5.51,5.96,0.45,49
11,6.07,6.59,0.52,50
12,6.65,7.11,0.46,35
13,7.19,7.78,0.59,49
14,7.69,8.15,0.46,45
15,8.23,8.62,0.39,43
16,8.76,9.18,0.42,43
17,9.49,9.76,0.27,74
18,10.03,10.47,0.44,38
19,10.62,10.82,0.2,48
20,11.14,11.45,0.31,44
22,12.26,12.4,0.14,56
23,12.77,13.04,0.27,34
24,13.41,13.79,0.38,60
25,13.97,14.34,0.37,52
26,14.48,14.7,0.22,50
27,15.1,15.16,0.06,53
28,15.62,15.93,0.31,34
29,16.15,16.75,0.6,66
31,17.38,17.72,0.34,55
32,17.88,18.44,0.56,50
33,18.43,18.78,0.35,41
34,18.94,19.45,0.51,46
35,19.49,19.93,0.44,48
36,20.0,20.31,0.31,34
37,20.52,20.73,0.21,49
39,21.63,21.84,0.21,29
40,22.15,22.37,0.22,51
41,22.67,23.15,0.48,49
42,23.27,23.83,0.56,53
44,24.41,24.69,0.28,56
45,24.93,25.56,0.63,40
46,25.46,25.84,0.38,51
47,25.96,26.34,0.38,44
48,26.52,26.92,0.4,50
49,27.04,27.26,0.22,48
50,27.62,28.1,0.48,53
51,28.16,28.35,0.19,37
52,28.66,28.82,0.16,41
54,29.89,30.21,0.32,63
55,30.43,30.65,0.22,42
56,30.94,31.06,0.12,50
57,31.46,31.61,0.15,37
58,32.03,32.4,0.37,47
60,33.24,33.58,0.34,49
61,33.76,34.35,0.59,52
62,34.49,35.12,0.63,52
63,35.09,35.48,0.39,61
64,35.59,35.84,0.25,39
65,36.12,36.57,0.45,49
66,36.77,37.02,0.25,59
67,37.28,37.68,0.4,40
70,39.07,39.52,0.45,62
71,39.58,40.01,0.43,36
72,40.27,40.55,0.28,65
73,40.84,41.42,0.58,41
74,41.57,41.82,0.25,70
75,42.09,42.61,0.52,52
76,42.79,43.45,0.66,72
77,43.4,43.67,0.27,35
78,43.97,44.3,0.33,43
79,44.59,44.92,0.33,74
80,45.11,45.66,0.55,30
81,45.78,46.17,0.39,59
82,46.3,46.58,0.28,55
83,46.81,47.13,0.32,37
84,47.37,47.72,0.35,53
85,47.92,48.24,0.32,53
86,48.42,48.9,0.48,40
87,48.96,49.45,0.49,37
88,49.63,50.02,0.39,67
90,50.67,50.79,0.12,38
92,51.88,52.55,0.67,75
93,52.46,52.7,0.24,46
94,53.05,53.81,0.76,59
96,54.31,54.58,0.27,38
97,54.88,55.29,0.41,49
98,55.43,55.77,0.34,62
99,55.95,56.45,0.5,23
100,56.46,57.44,0.98,65
101,57.29,57.62,0.33,63
102,57.91,58.66,0.75,67
103,58.56,58.79,0.23,42
104,59.07,59.28,0.21,45
105,59.58,59.91,0.33,48
106,60.08,60.35,0.27,41
107,60.62,60.91,0.29,43
108,61.15,61.71,0.56,67
109,61.68,62.02,0.34,28
110,62.18,62.6,0.42,39
111,62.77,63.28,0.51,64
112,63.28,63.4,0.12,40
114,64.36,64.85,0.49,49
115,64.86,65.23,0.37,51
116,65.47,65.67,0.2,55
118,66.61,67.14,0.53,51
119,67.35,67.64,0.29,61
120,67.85,68.12,0.27,60
121,68.41,68.96,0.55,45
122,68.97,69.14,0.17,49
123,69.5,69.85,0.35,40
124,70.03,70.61,0.58,49
125,70.55,70.89,0.34,42
126,71.13,71.48,0.35,49
127,71.64,72.08,0.44,52
129,72.71,73.26,0.55,23
130,73.37,73.5,0.13,57
131,73.88,74.09,0.21,66
132,74.39,74.85,0.46,23
133,74.93,75.44,0.51,54
134,75.56,76.03,0.47,46
135,76.21,76.52,0.31,64
136,76.73,77.18,0.45,54
137,77.28,77.52,0.24,36
138,77.8,78.09,0.29,38
139,78.39,78.69,0.3,55
140,78.96,79.38,0.42,53
141,79.49,80.04,0.55,71
142,80.12,80.56,0.44,61
143,80.63,81.16,0.53,3
144,81.2,81.92,0.72,89
146,82.34,82.79,0.45,70
147,83.2,83.77,0.57,51
149,84.43,85.0,0.57,84
150,84.94,85.36,0.42,29
151,85.61,85.79,0.18,64
152,86.12,86.74,0.62,45
153,86.69,86.84,0.15,43
154,87.28,87.57,0.29,64
155,87.87,88.04,0.17,39
156,88.37,88.47,0.1,46
157,88.88,89.2,0.32,38
158,89.45,89.68,0.23,59
159,89.96,90.14,0.18,45
160,90.53,90.94,0.41,43
161,91.12,91.39,0.27,50
163,92.4,92.63,0.23,66
164,92.91,93.31,0.4,44
165,93.42,93.97,0.55,52
166,93.93,94.33,0.4,42
168,95.14,95.48,0.34,51
169,95.66,96.04,0.38,46
171,96.75,97.27,0.52,48
173,97.91,98.24,0.33,61
174,98.52,98.79,0.27,51
175,99.03,99.66,0.63,38
177,100.3,100.98,0.68,75
178,101.05,101.52,0.47,53
179,101.62,102.02,0.4,39
180,102.21,102.79,0.58,60
181,102.78,103.18,0.4,60
185,105.59,106.04,0.45,78
186,106.23,106.5,0.27,51
187,106.83,106.96,0.13,56
188,107.33,107.53,0.2,45
189,107.86,108.08,0.22,43
190,108.37,108.64,0.27,39
191,108.88,109.97,1.09,62
192,109.4,109.91,0.51,24
193,110.02,110.29,0.27,37
194,110.53,110.87,0.34,40
195,111.06,111.44,0.38,52
196,111.63,112.02,0.39,54
197,112.15,112.51,0.36,33
198,112.66,113.16,0.5,48
199,113.18,113.41,0.23,35
201,114.28,114.51,0.23,42
202,114.78,114.89,0.11,46
203,115.28,115.34,0.06,1
