id,start_time,end_time,duration,len_block_range
1,0.88,1.48,0.6,59
3,2.17,2.54,0.37,42
4,2.69,3.7,1.01,34
5,3.36,3.7,0.34,58
6,3.87,4.3,0.43,28
7,4.51,4.93,0.42,51
8,5.08,5.73,0.65,53
9,5.59,6.02,0.43,19
10,6.19,6.61,0.42,52
11,6.71,6.99,0.28,34
13,7.8,8.16,0.36,40
15,8.92,9.1,0.18,36
16,9.44,9.71,0.27,50
18,10.53,11.09,0.56,56
19,11.06,11.72,0.66,22
20,11.64,12.21,0.57,51
21,12.22,12.61,0.39,33
23,13.39,13.98,0.59,60
24,13.9,14.17,0.27,30
25,14.41,14.7,0.29,30
26,15.06,15.56,0.5,48
27,15.73,15.97,0.24,51
29,16.9,17.14,0.24,21
30,17.4,17.81,0.41,48
31,17.91,18.15,0.24,23
32,18.42,19.09,0.67,67
34,19.58,19.83,0.25,44
35,20.11,20.34,0.23,38
36,20.63,20.82,0.19,43
37,21.14,21.41,0.27,31
38,21.66,21.91,0.25,37
39,22.21,22.63,0.42,47
40,22.73,23.39,0.66,50
41,23.3,23.65,0.35,29
42,23.8,24.3,0.5,35
43,24.37,24.55,0.18,33
44,24.9,25.43,0.53,46
45,25.41,25.99,0.58,30
46,25.91,26.34,0.43,40
47,26.48,26.89,0.41,45
48,26.99,27.22,0.23,25
49,27.55,27.91,0.36,40
50,28.14,28.42,0.28,54
51,28.68,28.83,0.15,28
52,29.2,29.82,0.62,44
53,29.79,30.18,0.39,50
54,30.3,30.57,0.27,27
55,30.83,31.34,0.51,39
56,31.35,31.49,0.14,32
57,32.0,32.26,0.26,44
58,32.52,32.84,0.32,40
59,33.04,33.26,0.22,41
60,33.59,34.01,0.42,31
61,34.1,34.27,0.17,57
62,34.61,35.01,0.4,19
63,35.13,35.55,0.42,45
64,35.8,36.12,0.32,45
65,36.31,36.71,0.4,46
67,37.61,38.13,0.52,53
68,38.18,38.64,0.46,43
69,38.78,39.03,0.25,52
70,39.3,40.09,0.79,46
71,39.88,40.63,0.75,26
72,40.4,41.06,0.66,40
73,40.93,41.42,0.49,46
75,42.42,42.73,0.31,59
76,43.01,43.53,0.52,51
77,43.61,44.18,0.57,60
78,44.12,44.48,0.36,20
79,44.7,45.16,0.46,41
80,45.28,45.46,0.18,38
81,45.82,46.16,0.34,47
82,46.37,46.52,0.15,34
83,46.9,47.43,0.53,41
84,47.53,47.93,0.4,38
85,48.09,48.35,0.26,55
86,48.6,49.22,0.62,36
87,49.24,49.58,0.34,34
88,49.75,49.95,0.2,40
89,50.31,51.09,0.78,29
91,51.59,51.99,0.4,67
92,52.22,52.55,0.33,40
94,53.64,54.01,0.37,55
95,54.16,54.34,0.18,60
96,54.72,55.28,0.56,39
97,55.23,55.65,0.42,17
98,55.85,55.99,0.14,40
99,56.36,56.64,0.28,55
100,56.88,57.08,0.2,23
101,57.39,57.54,0.15,45
102,57.9,58.21,0.31,26
103,58.41,58.85,0.44,35
104,58.97,59.48,0.51,48
105,59.62,59.93,0.31,50
106,60.13,60.71,0.58,26
107,60.65,60.87,0.22,42
108,61.16,61.31,0.15,36
109,61.67,61.98,0.31,42
110,62.17,62.48,0.31,34
111,62.68,63.09,0.41,35
114,64.34,64.99,0.65,39
115,64.94,65.18,0.24,29
116,65.48,65.64,0.16,38
117,65.99,66.25,0.26,38
118,66.53,66.71,0.18,38
119,67.1,67.36,0.26,49
121,68.17,68.45,0.28,30
122,68.68,69.22,0.54,54
123,69.25,69.46,0.21,30
124,69.78,70.22,0.44,28
125,70.39,70.63,0.24,49
126,70.94,71.44,0.5,42
127,71.5,71.91,0.41,49
128,72.06,72.24,0.18,32
129,72.65,72.92,0.27,46
130,73.16,73.6,0.44,35
131,73.8,74.28,0.48,33
135,76.5,76.85,0.35,55
136,77.08,77.28,0.2,29
137,77.62,77.91,0.29,43
138,78.26,78.64,0.38,47
139,78.78,79.26,0.48,31
140,79.28,79.52,0.24,41
141,79.85,80.44,0.59,32
142,80.61,80.88,0.27,60
144,81.82,82.34,0.52,37
146,83.18,83.57,0.39,42
148,84.35,85.01,0.66,47
149,84.92,85.24,0.32,30
151,86.16,86.64,0.48,56
152,86.75,87.15,0.4,32
153,87.29,87.9,0.61,29
154,87.84,88.43,0.59,56
156,89.01,89.46,0.45,52
157,89.52,89.83,0.31,34
158,90.07,90.9,0.83,34
159,90.64,90.9,0.26,39
160,91.16,91.47,0.31,33
161,91.85,92.43,0.58,66
162,92.35,92.43,0.08,23
163,92.87,93.38,0.51,36
164,93.38,93.69,0.31,40
165,93.92,94.3,0.38,33
167,95.22,95.61,0.39,48
168,95.72,96.02,0.3,39
169,96.23,96.47,0.24,37
170,96.8,97.19,0.39,35
171,97.37,97.91,0.54,36
172,97.95,98.78,0.83,65
173,98.58,99.01,0.43,17
174,99.08,99.37,0.29,51
175,99.59,100.04,0.45,36
176,100.15,100.51,0.36,28
177,100.81,101.05,0.24,43
178,101.46,101.56,0.1,48
180,102.56,102.88,0.32,39
182,103.63,103.97,0.34,42
183,104.14,104.35,0.21,28
184,104.66,105.08,0.42,36
185,105.16,105.66,0.5,40
186,105.83,106.21,0.38,49
187,106.35,106.83,0.48,31
188,106.86,107.21,0.35,45
189,107.37,107.66,0.29,28
190,107.95,108.51,0.56,42
191,108.55,108.69,0.14,44
192,109.08,109.23,0.15,41
193,109.61,109.88,0.27,27
194,110.11,110.41,0.3,53
195,110.67,111.04,0.37,33
197,111.74,112.05,0.31,34
198,112.25,112.61,0.36,40
199,112.8,113.05,0.25,37
200,113.34,113.55,0.21,31
201,113.91,114.14,0.23,42
202,114.47,115.08,0.61,45
204,115.61,115.91,0.3,41
205,116.17,116.28,0.11,34
206,116.67,117.37,0.7,41
207,117.19,117.66,0.47,39
208,117.72,117.91,0.19,32
209,118.24,118.47,0.23,34
210,118.75,119.09,0.34,38
212,120.05,120.5,0.45,46
214,121.42,121.89,0.47,48
215,121.92,122.33,0.41,34
216,122.59,122.92,0.33,47
219,124.31,124.59,0.28,52
221,125.54,125.76,0.22,37
223,126.6,126.98,0.38,36
224,127.18,127.68,0.5,46
225,127.77,128.38,0.61,34
226,128.35,128.52,0.17,39
228,129.36,129.49,0.13,24
230,130.4,130.66,0.26,29
231,130.92,131.53,0.61,30
232,131.44,131.77,0.33,45
234,132.57,132.88,0.31,36
236,133.77,134.08,0.31,44
237,134.28,134.43,0.15,24
238,134.79,135.28,0.49,36
239,135.4,136.67,1.27,31
240,136.48,136.68,0.2,7
241,137.0,137.67,0.67,29
242,137.63,137.94,0.31,34
244,138.68,139.18,0.5,28
245,139.24,139.98,0.74,21
246,139.93,140.25,0.32,16
247,140.57,141.11,0.54,7
248,141.19,141.68,0.49,6
250,142.92,143.59,0.67,3
252,144.53,150.55,6.02,2
255,172.19,172.34,0.15,16
256,172.73,173.24,0.51,15
257,173.37,173.75,0.38,29
258,173.9,174.24,0.34,14
259,174.47,174.78,0.31,18
260,175.06,175.44,0.38,23
261,175.67,176.02,0.35,26
262,176.2,176.45,0.25,20
263,176.71,176.87,0.16,33
264,177.26,177.3,0.04,7
